time[s],T_tr[K],T_vib[K],rho_N[kg/m3],rho_N2[kg/m3]
11e-07,9195.71,4827.92,0.00116293,0.00232587
12e-07,8782.07,6532.67,0.00116293,0.00232587
13e-07,8567.99,7405.78,0.00116294,0.00232586
14e-07,8457.24,7855.88,0.00116294,0.00232585
15e-07,8399.9,8088.5,0.00116295,0.00232584
16e-07,8370.17,8208.88,0.00116295,0.00232583
17e-07,8354.75,8271.2,0.00116296,0.00232581
18e-07,8346.73,8303.47,0.00116297,0.0023258
19e-07,8342.55,8320.18,0.00116297,0.00232579
11e-06,8340.36,8328.81,0.00116298,0.00232577
11.1e-06,8339.2,8333.26,0.00116299,0.00232576
11.2e-06,8338.58,8335.54,0.00116299,0.00232575
11.3e-06,8338.23,8336.7,0.001163,0.00232573
11.4e-06,8338.03,8337.28,0.00116301,0.00232572
11.5e-06,8337.9,8337.56,0.00116301,0.00232571
11.6e-06,8337.81,8337.68,0.00116302,0.00232569
11.7e-06,8337.74,8337.72,0.00116303,0.00232568
11.8e-06,8337.68,8337.71,0.00116303,0.00232567
11.9e-06,8337.63,8337.69,0.00116304,0.00232565
12e-06,8337.57,8337.65,0.00116305,0.00232564
12.1e-06,8337.52,8337.61,0.00116305,0.00232563
12.2e-06,8337.47,8337.56,0.00116306,0.00232561
12.3e-06,8337.43,8337.52,0.00116307,0.0023256
12.4e-06,8337.38,8337.47,0.00116307,0.00232559
12.5e-06,8337.33,8337.42,0.00116308,0.00232557
12.6e-06,8337.28,8337.37,0.00116309,0.00232556
12.7e-06,8337.23,8337.32,0.00116309,0.00232555
12.8e-06,8337.18,8337.27,0.0011631,0.00232553
12.9e-06,8337.13,8337.22,0.00116311,0.00232552
13e-06,8337.08,8337.18,0.00116311,0.0023255
13.1e-06,8337.03,8337.13,0.00116312,0.00232549
13.2e-06,8336.99,8337.08,0.00116313,0.00232548
13.3e-06,8336.94,8337.03,0.00116313,0.00232546
13.4e-06,8336.89,8336.98,0.00116314,0.00232545
13.5e-06,8336.84,8336.93,0.00116315,0.00232544
13.6e-06,8336.79,8336.88,0.00116316,0.00232542
13.7e-06,8336.74,8336.83,0.00116316,0.00232541
13.8e-06,8336.69,8336.79,0.00116317,0.0023254
13.9e-06,8336.64,8336.74,0.00116318,0.00232538
14e-06,8336.6,8336.69,0.00116318,0.00232537
14.1e-06,8336.55,8336.64,0.00116319,0.00232536
14.2e-06,8336.5,8336.59,0.0011632,0.00232534
14.3e-06,8336.45,8336.54,0.0011632,0.00232533
14.4e-06,8336.4,8336.49,0.00116321,0.00232532
14.5e-06,8336.35,8336.44,0.00116322,0.0023253
14.6e-06,8336.3,8336.4,0.00116322,0.00232529
14.7e-06,8336.25,8336.35,0.00116323,0.00232528
14.8e-06,8336.21,8336.3,0.00116324,0.00232526
14.9e-06,8336.16,8336.25,0.00116324,0.00232525
15e-06,8336.11,8336.2,0.00116325,0.00232524
15.1e-06,8336.06,8336.15,0.00116326,0.00232522
15.2e-06,8336.01,8336.1,0.00116326,0.00232521
15.3e-06,8335.96,8336.05,0.00116327,0.0023252
15.4e-06,8335.91,8336.01,0.00116328,0.00232518
15.5e-06,8335.86,8335.96,0.00116328,0.00232517
15.6e-06,8335.82,8335.91,0.00116329,0.00232516
15.7e-06,8335.77,8335.86,0.0011633,0.00232514
15.8e-06,8335.72,8335.81,0.0011633,0.00232513
15.9e-06,8335.67,8335.76,0.00116331,0.00232511
16e-06,8335.62,8335.71,0.00116332,0.0023251
16.1e-06,8335.57,8335.67,0.00116332,0.00232509
16.2e-06,8335.52,8335.62,0.00116333,0.00232507
16.3e-06,8335.48,8335.57,0.00116334,0.00232506
16.4e-06,8335.43,8335.52,0.00116334,0.00232505
16.5e-06,8335.38,8335.47,0.00116335,0.00232503
16.6e-06,8335.33,8335.42,0.00116336,0.00232502
16.7e-06,8335.28,8335.37,0.00116336,0.00232501
16.8e-06,8335.23,8335.32,0.00116337,0.00232499
16.9e-06,8335.18,8335.28,0.00116338,0.00232498
17e-06,8335.13,8335.23,0.00116338,0.00232497
17.1e-06,8335.09,8335.18,0.00116339,0.00232495
17.2e-06,8335.04,8335.13,0.0011634,0.00232494
17.3e-06,8334.99,8335.08,0.0011634,0.00232493
17.4e-06,8334.94,8335.03,0.00116341,0.00232491
17.5e-06,8334.89,8334.98,0.00116342,0.0023249
17.6e-06,8334.84,8334.94,0.00116342,0.00232489
17.7e-06,8334.79,8334.89,0.00116343,0.00232487
17.8e-06,8334.75,8334.84,0.00116344,0.00232486
17.9e-06,8334.7,8334.79,0.00116344,0.00232485
18e-06,8334.65,8334.74,0.00116345,0.00232483
18.1e-06,8334.6,8334.69,0.00116346,0.00232482
18.2e-06,8334.55,8334.64,0.00116346,0.00232481
18.3e-06,8334.5,8334.6,0.00116347,0.00232479
18.4e-06,8334.45,8334.55,0.00116348,0.00232478
18.5e-06,8334.41,8334.5,0.00116348,0.00232477
18.6e-06,8334.36,8334.45,0.00116349,0.00232475
18.7e-06,8334.31,8334.4,0.0011635,0.00232474
18.8e-06,8334.26,8334.35,0.0011635,0.00232473
18.9e-06,8334.21,8334.3,0.00116351,0.00232471
19e-06,8334.16,8334.25,0.00116352,0.0023247
19.1e-06,8334.11,8334.21,0.00116352,0.00232469
19.2e-06,8334.07,8334.16,0.00116353,0.00232467
19.3e-06,8334.02,8334.11,0.00116354,0.00232466
19.4e-06,8333.97,8334.06,0.00116354,0.00232465
19.5e-06,8333.92,8334.01,0.00116355,0.00232463
19.6e-06,8333.87,8333.96,0.00116356,0.00232462
19.7e-06,8333.82,8333.91,0.00116356,0.00232461
19.8e-06,8333.77,8333.87,0.00116357,0.00232459
19.9e-06,8333.73,8333.82,0.00116358,0.00232458
11e-05,8333.68,8333.77,0.00116358,0.00232456
11.01e-05,8333.63,8333.72,0.00116359,0.00232455
11.02e-05,8333.58,8333.67,0.0011636,0.00232454
11.03e-05,8333.53,8333.62,0.0011636,0.00232452
11.04e-05,8333.48,8333.58,0.00116361,0.00232451
11.05e-05,8333.43,8333.53,0.00116362,0.0023245
11.06e-05,8333.39,8333.48,0.00116363,0.00232448
11.07e-05,8333.34,8333.43,0.00116363,0.00232447
11.08e-05,8333.29,8333.38,0.00116364,0.00232446
11.09e-05,8333.24,8333.33,0.00116365,0.00232444
11.1e-05,8333.19,8333.28,0.00116365,0.00232443
11.11e-05,8333.14,8333.24,0.00116366,0.00232442
11.12e-05,8333.09,8333.19,0.00116367,0.0023244
11.13e-05,8333.05,8333.14,0.00116367,0.00232439
11.14e-05,8333,8333.09,0.00116368,0.00232438
11.15e-05,8332.95,8333.04,0.00116369,0.00232436
11.16e-05,8332.9,8332.99,0.00116369,0.00232435
11.17e-05,8332.85,8332.94,0.0011637,0.00232434
11.18e-05,8332.8,8332.9,0.00116371,0.00232432
11.19e-05,8332.75,8332.85,0.00116371,0.00232431
11.2e-05,8332.71,8332.8,0.00116372,0.0023243
11.21e-05,8332.66,8332.75,0.00116373,0.00232428
11.22e-05,8332.61,8332.7,0.00116373,0.00232427
11.23e-05,8332.56,8332.65,0.00116374,0.00232426
11.24e-05,8332.51,8332.6,0.00116375,0.00232424
11.25e-05,8332.46,8332.56,0.00116375,0.00232423
11.26e-05,8332.42,8332.51,0.00116376,0.00232422
11.27e-05,8332.37,8332.46,0.00116377,0.0023242
11.28e-05,8332.32,8332.41,0.00116377,0.00232419
11.29e-05,8332.27,8332.36,0.00116378,0.00232418
11.3e-05,8332.22,8332.31,0.00116379,0.00232416
11.31e-05,8332.17,8332.27,0.00116379,0.00232415
11.32e-05,8332.12,8332.22,0.0011638,0.00232414
11.33e-05,8332.08,8332.17,0.00116381,0.00232412
11.34e-05,8332.03,8332.12,0.00116381,0.00232411
11.35e-05,8331.98,8332.07,0.00116382,0.0023241
11.36e-05,8331.93,8332.02,0.00116383,0.00232408
11.37e-05,8331.88,8331.97,0.00116383,0.00232407
11.38e-05,8331.83,8331.93,0.00116384,0.00232406
11.39e-05,8331.79,8331.88,0.00116385,0.00232404
11.4e-05,8331.74,8331.83,0.00116385,0.00232403
11.41e-05,8331.69,8331.78,0.00116386,0.00232402
11.42e-05,8331.64,8331.73,0.00116387,0.002324
11.43e-05,8331.59,8331.68,0.00116387,0.00232399
11.44e-05,8331.54,8331.64,0.00116388,0.00232398
11.45e-05,8331.5,8331.59,0.00116389,0.00232396
11.46e-05,8331.45,8331.54,0.00116389,0.00232395
11.47e-05,8331.4,8331.49,0.0011639,0.00232394
11.48e-05,8331.35,8331.44,0.00116391,0.00232392
11.49e-05,8331.3,8331.39,0.00116391,0.00232391
11.5e-05,8331.25,8331.35,0.00116392,0.0023239
11.51e-05,8331.21,8331.3,0.00116393,0.00232388
11.52e-05,8331.16,8331.25,0.00116393,0.00232387
11.53e-05,8331.11,8331.2,0.00116394,0.00232386
11.54e-05,8331.06,8331.15,0.00116395,0.00232384
11.55e-05,8331.01,8331.1,0.00116395,0.00232383
11.56e-05,8330.96,8331.06,0.00116396,0.00232382
11.57e-05,8330.91,8331.01,0.00116397,0.0023238
11.58e-05,8330.87,8330.96,0.00116397,0.00232379
11.59e-05,8330.82,8330.91,0.00116398,0.00232378
11.6e-05,8330.77,8330.86,0.00116399,0.00232376
11.61e-05,8330.72,8330.81,0.00116399,0.00232375
11.62e-05,8330.67,8330.77,0.001164,0.00232374
11.63e-05,8330.62,8330.72,0.00116401,0.00232372
11.64e-05,8330.58,8330.67,0.00116401,0.00232371
11.65e-05,8330.53,8330.62,0.00116402,0.0023237
11.66e-05,8330.48,8330.57,0.00116403,0.00232368
11.67e-05,8330.43,8330.52,0.00116403,0.00232367
11.68e-05,8330.38,8330.47,0.00116404,0.00232366
11.69e-05,8330.33,8330.43,0.00116405,0.00232364
11.7e-05,8330.29,8330.38,0.00116405,0.00232363
11.71e-05,8330.24,8330.33,0.00116406,0.00232362
11.72e-05,8330.19,8330.28,0.00116407,0.0023236
11.73e-05,8330.14,8330.23,0.00116407,0.00232359
11.74e-05,8330.09,8330.19,0.00116408,0.00232358
11.75e-05,8330.04,8330.14,0.00116409,0.00232356
11.76e-05,8330,8330.09,0.00116409,0.00232355
11.77e-05,8329.95,8330.04,0.0011641,0.00232354
11.78e-05,8329.9,8329.99,0.00116411,0.00232352
11.79e-05,8329.85,8329.94,0.00116411,0.00232351
11.8e-05,8329.8,8329.9,0.00116412,0.0023235
11.81e-05,8329.76,8329.85,0.00116413,0.00232348
11.82e-05,8329.71,8329.8,0.00116413,0.00232347
11.83e-05,8329.66,8329.75,0.00116414,0.00232346
11.84e-05,8329.61,8329.7,0.00116415,0.00232344
11.85e-05,8329.56,8329.65,0.00116415,0.00232343
11.86e-05,8329.51,8329.61,0.00116416,0.00232342
11.87e-05,8329.47,8329.56,0.00116417,0.0023234
11.88e-05,8329.42,8329.51,0.00116417,0.00232339
11.89e-05,8329.37,8329.46,0.00116418,0.00232338
11.9e-05,8329.32,8329.41,0.00116419,0.00232336
11.91e-05,8329.27,8329.36,0.00116419,0.00232335
11.92e-05,8329.22,8329.32,0.0011642,0.00232334
11.93e-05,8329.18,8329.27,0.00116421,0.00232332
11.94e-05,8329.13,8329.22,0.00116421,0.00232331
11.95e-05,8329.08,8329.17,0.00116422,0.0023233
11.96e-05,8329.03,8329.12,0.00116423,0.00232328
11.97e-05,8328.98,8329.07,0.00116423,0.00232327
11.98e-05,8328.93,8329.03,0.00116424,0.00232326
11.99e-05,8328.89,8328.98,0.00116425,0.00232324
